% Finesse pre-2.1.0 (pre-2.1.0-177-g0bde7a5), 29.10.2015
% 2D plot, y1axis: Abs , y2axis: Phase [Deg] 
% f [Hz] (sweptEOAM), am_trans Abs , am_trans Phase [Deg] , am_in Abs , am_in Phase [Deg] 

 1.00000000000000  1.48456115665379e-08  89.9998024855411  0.00000000000000  0.00000000000000 
 1.01624869287069  1.50868329219326e-08  89.9997993223697  0.00000000000000  0.00000000000000 
 1.03276140576138  1.53319743221719e-08  89.9997961066451  0.00000000000000  0.00000000000000 
 1.04954242865230  1.55810989458846e-08  89.9997928377358  0.00000000000000  0.00000000000000 
 1.06659612123022  1.58342714288675e-08  89.9997895779718  0.00000000000000  0.00000000000000 
 1.08392691402116  1.60915577877574e-08  89.9997860584841  0.00000000000000  0.00000000000000 
 1.10153930954136  1.63530243445021e-08  89.9997825655383  0.00000000000000  0.00000000000000 
 1.11943788346709  1.66187396414954e-08  89.9997791373128  0.00000000000000  0.00000000000000 
 1.13762728582336  1.68887722211319e-08  89.9997753299242  0.00000000000000  0.00000000000000 
 1.15611224219201  1.71631927005342e-08  89.9997716573201  0.00000000000000  0.00000000000000 
 1.17489755493943  1.74420723560206e-08  89.9997680598736  0.00000000000000  0.00000000000000 
 1.19398810446416  1.77254833659659e-08  89.9997642152909  0.00000000000000  0.00000000000000 
 1.21338885046486  1.80134992826451e-08  89.9997604425885  0.00000000000000  0.00000000000000 
 1.23310483322878  1.83061951501960e-08  89.9997565386142  0.00000000000000  0.00000000000000 
 1.25314117494127  1.86036468939957e-08  89.9997525696179  0.00000000000000  0.00000000000000 
 1.27350308101650  1.89059317578109e-08  89.9997486557212  0.00000000000000  0.00000000000000 
 1.29419584144981  1.92131285466601e-08  89.9997445655322  0.00000000000000  0.00000000000000 
 1.31522483219205  1.95253169676174e-08  89.9997404056918  0.00000000000000  0.00000000000000 
 1.33659551654624  1.98425775118524e-08  89.9997359658039  0.00000000000000  0.00000000000000 
 1.35831344658694  2.01649936750748e-08  89.9997317293358  0.00000000000000  0.00000000000000 
 1.38038426460266  2.04926485158451e-08  89.9997273781529  0.00000000000000  0.00000000000000 
 1.40281370456171  2.08256270980635e-08  89.9997230581042  0.00000000000000  0.00000000000000 
 1.42560759360193  2.11640160885152e-08  89.9997185091397  0.00000000000000  0.00000000000000 
 1.44877185354448  2.15079039650361e-08  89.9997139476970  0.00000000000000  0.00000000000000 
 1.47231250243242  2.18573790736234e-08  89.9997094062662  0.00000000000000  0.00000000000000 
 1.49623565609412  2.22125330978825e-08  89.9997047408860  0.00000000000000  0.00000000000000 
 1.52054752973217  2.25734573883522e-08  89.9996996627338  0.00000000000000  0.00000000000000 
 1.54525443953807  2.29402469246108e-08  89.9996949437747  0.00000000000000  0.00000000000000 
 1.57036280433319  2.33129958535721e-08  89.9996899579383  0.00000000000000  0.00000000000000 
 1.59587914723635  2.36918017638395e-08  89.9996849389362  0.00000000000000  0.00000000000000 
 1.62181009735853  2.40767624105504e-08  89.9996798335631  0.00000000000000  0.00000000000000 
 1.64816239152508  2.44679783174607e-08  89.9996747404523  0.00000000000000  0.00000000000000 
 1.67494287602599  2.48655506467057e-08  89.9996692525021  0.00000000000000  0.00000000000000 
 1.70215850839448  2.52695835441426e-08  89.9996638678377  0.00000000000000  0.00000000000000 
 1.72981635921461  2.56801814054309e-08  89.9996584283499  0.00000000000000  0.00000000000000 
 1.75792361395818  2.60974509993310e-08  89.9996528697896  0.00000000000000  0.00000000000000 
 1.78648757485152  2.65215002325819e-08  89.9996473401954  0.00000000000000  0.00000000000000 
 1.81551566277258  2.69524399401369e-08  89.9996414750762  0.00000000000000  0.00000000000000 
 1.84501541917889  2.73903820324758e-08  89.9996356862739  0.00000000000000  0.00000000000000 
 1.87499450806681  2.78354399119419e-08  89.9996298832243  0.00000000000000  0.00000000000000 
 1.90546071796261  2.82877290903029e-08  89.9996238265606  0.00000000000000  0.00000000000000 
 1.93642196394595  2.87473675634488e-08  89.9996177919733  0.00000000000000  0.00000000000000 
 1.96788628970616  2.92144751591396e-08  89.9996114290413  0.00000000000000  0.00000000000000 
 1.99986186963203  2.96891720451386e-08  89.9996051597223  0.00000000000000  0.00000000000000 
 2.03235701093548  3.01715824207086e-08  89.9995987883251  0.00000000000000  0.00000000000000 
 2.06538015580976  3.06618309500177e-08  89.9995922450948  0.00000000000000  0.00000000000000 
 2.09893988362272  3.11600456903531e-08  89.9995855240497  0.00000000000000  0.00000000000000 
 2.13304491314574  3.16663557190182e-08  89.9995788773471  0.00000000000000  0.00000000000000 
 2.16770410481883  3.21808925835650e-08  89.9995720210071  0.00000000000000  0.00000000000000 
 2.20292646305256  3.27037900589289e-08  89.9995649885939  0.00000000000000  0.00000000000000 
 2.23872113856741  3.32351839045684e-08  89.9995579794521  0.00000000000000  0.00000000000000 
 2.27509743077111  3.37752120032450e-08  89.9995508480536  0.00000000000000  0.00000000000000 
 2.31206479017459  3.43240153116504e-08  89.9995434192041  0.00000000000000  0.00000000000000 
 2.34963282084727  3.48817354248519e-08  89.9995361005293  0.00000000000000  0.00000000000000 
 2.38781128291210  3.54485180249285e-08  89.9995285662377  0.00000000000000  0.00000000000000 
 2.42661009508131  3.60245103968422e-08  89.9995208479466  0.00000000000000  0.00000000000000 
 2.46603933723319  3.66098614770111e-08  89.9995131304713  0.00000000000000  0.00000000000000 
 2.50610925303093  3.72047237753851e-08  89.9995052626704  0.00000000000000  0.00000000000000 
 2.54683025258381  3.78092522582824e-08  89.9994971479144  0.00000000000000  0.00000000000000 
 2.58821291515182  3.84236028079532e-08  89.9994890789598  0.00000000000000  0.00000000000000 
 2.63026799189407  3.90479362471439e-08  89.9994806584266  0.00000000000000  0.00000000000000 
 2.67300640866195  3.96824141757527e-08  89.9994722457915  0.00000000000000  0.00000000000000 
 2.71643926883768  4.03272015798615e-08  89.9994635916683  0.00000000000000  0.00000000000000 
 2.76057785621890  4.09824659019178e-08  89.9994549599510  0.00000000000000  0.00000000000000 
 2.80543363795022  4.16483772350300e-08  89.9994460302183  0.00000000000000  0.00000000000000 
 2.85101826750237  4.23251093846106e-08  89.9994371437838  0.00000000000000  0.00000000000000 
 2.89734358769973  4.30128368985386e-08  89.9994279090244  0.00000000000000  0.00000000000000 
 2.94442163379712  4.37117390917078e-08  89.9994187087246  0.00000000000000  0.00000000000000 
 2.99226463660650  4.44219979366133e-08  89.9994092306635  0.00000000000000  0.00000000000000 
 3.04088502567453  4.51437972029200e-08  89.9993996791879  0.00000000000000  0.00000000000000 
 3.09029543251179  4.58773249415934e-08  89.9993898584057  0.00000000000000  0.00000000000000 
 3.14050869387436  4.66227713754701e-08  89.9993799039578  0.00000000000000  0.00000000000000 
 3.19153785509885  4.73803306825568e-08  89.9993698878387  0.00000000000000  0.00000000000000 
 3.24339617349152  4.81501988866083e-08  89.9993596197995  0.00000000000000  0.00000000000000 
 3.29609712177255  4.89325767575794e-08  89.9993492775376  0.00000000000000  0.00000000000000 
 3.34965439157619  4.97276670499517e-08  89.9993387051649  0.00000000000000  0.00000000000000 
 3.40408189700786  5.05356767717474e-08  89.9993279213240  0.00000000000000  0.00000000000000 
 3.45939377825900  5.13568154289902e-08  89.9993169478888  0.00000000000000  0.00000000000000 
 3.51560440528070  5.21912965036886e-08  89.9993059477579  0.00000000000000  0.00000000000000 
 3.57272838151694  5.30393370166917e-08  89.9992946457285  0.00000000000000  0.00000000000000 
 3.63078054769860  5.39011570142020e-08  89.9992831652371  0.00000000000000  0.00000000000000 
 3.68977598569902  5.47769801506480e-08  89.9992715227166  0.00000000000000  0.00000000000000 
 3.74973002245228  5.56670344797181e-08  89.9992596590724  0.00000000000000  0.00000000000000 
 3.81065823393510  5.65715509486175e-08  89.9992476442036  0.00000000000000  0.00000000000000 
 3.87257644921347  5.74907648621792e-08  89.9992353859342  0.00000000000000  0.00000000000000 
 3.93550075455499  5.84249148489637e-08  89.9992229864328  0.00000000000000  0.00000000000000 
 3.99944749760811  5.93742428890198e-08  89.9992103561312  0.00000000000000  0.00000000000000 
 4.06443329164919  6.03389971449493e-08  89.9991975228729  0.00000000000000  0.00000000000000 
 4.13047501989859  6.13194266814111e-08  89.9991844541250  0.00000000000000  0.00000000000000 
 4.19758983990697  6.23157874117507e-08  89.9991712324853  0.00000000000000  0.00000000000000 
 4.26579518801273  6.33283373518005e-08  89.9991577961820  0.00000000000000  0.00000000000000 
 4.33510878387201  6.43573397215634e-08  89.9991440964015  0.00000000000000  0.00000000000000 
 4.40554863506216  6.54030625982662e-08  89.9991301967164  0.00000000000000  0.00000000000000 
 4.47713304176016  6.64657773412345e-08  89.9991160429006  0.00000000000000  0.00000000000000 
 4.54988060149693  6.75457590498560e-08  89.9991016840974  0.00000000000000  0.00000000000000 
 4.62381021398895  6.86432892558739e-08  89.9990871127070  0.00000000000000  0.00000000000000 
 4.69894108604840  6.97586528633358e-08  89.9990722317282  0.00000000000000  0.00000000000000 
 4.77529273657306  7.08921399318824e-08  89.9990572089611  0.00000000000000  0.00000000000000 
 4.85288500161725  7.20440445040866e-08  89.9990418525066  0.00000000000000  0.00000000000000 
 4.93173803954530  7.32146662985294e-08  89.9990263151905  0.00000000000000  0.00000000000000 
 5.01187233626855  7.44043088640677e-08  89.9990104596750  0.00000000000000  0.00000000000000 
 5.09330871056767  7.56132816545519e-08  89.9989943821275  0.00000000000000  0.00000000000000 
 5.17606831950128  7.68418984884000e-08  89.9989780356069  0.00000000000000  0.00000000000000 
 5.26017266390256  7.80904788253497e-08  89.9989614156649  0.00000000000000  0.00000000000000 
 5.34564359396509  7.93593471766530e-08  89.9989445451771  0.00000000000000  0.00000000000000 
 5.43250331491959  8.06488326609880e-08  89.9989274241165  0.00000000000000  0.00000000000000 
 5.52077439280271  8.19592704338723e-08  89.9989099907350  0.00000000000000  0.00000000000000 
 5.61047976031971  8.32910019305197e-08  89.9988922798580  0.00000000000000  0.00000000000000 
 5.70164272280235  8.46443719029369e-08  89.9988742884819  0.00000000000000  0.00000000000000 
 5.79428696426356  8.60197322501909e-08  89.9988560099732  0.00000000000000  0.00000000000000 
 5.88843655355050  8.74174403183826e-08  89.9988373826298  0.00000000000000  0.00000000000000 
 5.98411595059767  8.88378594557516e-08  89.9988184943906  0.00000000000000  0.00000000000000 
 6.08135001278151  9.02813587143121e-08  89.9987993101269  0.00000000000000  0.00000000000000 
 6.18016400137835  9.17483126555612e-08  89.9987797608969  0.00000000000000  0.00000000000000 
 6.28058358812722  9.32391027798840e-08  89.9987599637039  0.00000000000000  0.00000000000000 
 6.38263486189938  9.47541163469558e-08  89.9987397919506  0.00000000000000  0.00000000000000 
 6.48634433547612  9.62937471459425e-08  89.9987193694476  0.00000000000000  0.00000000000000 
 6.59173895243680  9.78583946559130e-08  89.9986985449177  0.00000000000000  0.00000000000000 
 6.69884609415869  9.94484653989060e-08  89.9986773794469  0.00000000000000  0.00000000000000 
 6.80769358693068  1.01064373134228e-07  89.9986558884756  0.00000000000000  0.00000000000000 
 6.91830970918246  1.02706536811480e-07  89.9986340496424  0.00000000000000  0.00000000000000 
 7.03072319883126  1.04375383963674e-07  89.9986118720131  0.00000000000000  0.00000000000000 
 7.14496326074788  1.06071347612487e-07  89.9985893636212  0.00000000000000  0.00000000000000 
 7.26105957434412  1.07794868107071e-07  89.9985664379829  0.00000000000000  0.00000000000000 
 7.37904230128340  1.09546393956714e-07  89.9985431167365  0.00000000000000  0.00000000000000 
 7.49894209331676  1.11326379714479e-07  89.9985194671984  0.00000000000000  0.00000000000000 
 7.62079010024613  1.13135287809081e-07  89.9984954036712  0.00000000000000  0.00000000000000 
 7.74461797801701  1.14973588551812e-07  89.9984709402852  0.00000000000000  0.00000000000000 
 7.87045789694261  1.16841758859791e-07  89.9984461088092  0.00000000000000  0.00000000000000 
 7.99834255006170  1.18740284733156e-07  89.9984208547209  0.00000000000000  0.00000000000000 
 8.12830516163220  1.20669658784804e-07  89.9983952029857  0.00000000000000  0.00000000000000 
 8.26037949576279  1.22630383487804e-07  89.9983691416781  0.00000000000000  0.00000000000000 
 8.39459986518476  1.24622966894097e-07  89.9983426431802  0.00000000000000  0.00000000000000 
 8.53100114016646  1.26647927103139e-07  89.9983157059656  0.00000000000000  0.00000000000000 
 8.66961875757250  1.28705790221874e-07  89.9982883259404  0.00000000000000  0.00000000000000 
 8.81048873007025  1.30797091162699e-07  89.9982605023886  0.00000000000000  0.00000000000000 
 8.95364765548581  1.32922373123051e-07  89.9982322324981  0.00000000000000  0.00000000000000 
 9.09913272631215  1.35082187918477e-07  89.9982035060423  0.00000000000000  0.00000000000000 
 9.24698173937161  1.37277096947131e-07  89.9981743335324  0.00000000000000  0.00000000000000 
 9.39723310563551  1.39507670225283e-07  89.9981446416519  0.00000000000000  0.00000000000000 
 9.54992586020324  1.41774487608540e-07  89.9981145362118  0.00000000000000  0.00000000000000 
 9.70509967244351  1.44078137605329e-07  89.9980838986096  0.00000000000000  0.00000000000000 
 9.86279485630045  1.46419219271182e-07  89.9980527589168  0.00000000000000  0.00000000000000 
 10.0230523807671  1.48798339794021e-07  89.9980210912496  0.00000000000000  0.00000000000000 
 10.1859138805290  1.51216118164820e-07  89.9979889510155  0.00000000000000  0.00000000000000 
 10.3514216667810  1.53673182915544e-07  89.9979562663655  0.00000000000000  0.00000000000000 
 10.5196187382195  1.56170171286460e-07  89.9979230700434  0.00000000000000  0.00000000000000 
 10.6905487922135  1.58707732015591e-07  89.9978893275062  0.00000000000000  0.00000000000000 
 10.8642562361573  1.61286525324823e-07  89.9978550365387  0.00000000000000  0.00000000000000 
 11.0407861990070  1.63907220810495e-07  89.9978201686706  0.00000000000000  0.00000000000000 
 11.2201845430056  1.66570498664630e-07  89.9977847491977  0.00000000000000  0.00000000000000 
 11.4024978755974  1.69277051402735e-07  89.9977487426271  0.00000000000000  0.00000000000000 
 11.5877735615366  1.72027582476007e-07  89.9977121528212  0.00000000000000  0.00000000000000 
 11.7760597351931  1.74822805515002e-07  89.9976750026259  0.00000000000000  0.00000000000000 
 11.9674053130571  1.77663447695009e-07  89.9976372138199  0.00000000000000  0.00000000000000 
 12.1618600064480  1.80550246426173e-07  89.9975988033996  0.00000000000000  0.00000000000000 
 12.3594743344291  1.83483952212330e-07  89.9975598318187  0.00000000000000  0.00000000000000 
 12.5602996369323  1.86465326472217e-07  89.9975201766733  0.00000000000000  0.00000000000000 
 12.7643880880967  1.89495144328869e-07  89.9974798821386  0.00000000000000  0.00000000000000 
 12.9717927098224  1.92574192791654e-07  89.9974389261090  0.00000000000000  0.00000000000000 
 13.1825673855465  1.95703271720770e-07  89.9973973051718  0.00000000000000  0.00000000000000 
 13.3967668742414  1.98883193959087e-07  89.9973550134700  0.00000000000000  0.00000000000000 
 13.6144468246412  2.02114785741545e-07  89.9973120259863  0.00000000000000  0.00000000000000 
 13.8356637896991  2.05398887000454e-07  89.9972683574762  0.00000000000000  0.00000000000000 
 14.0604752412800  2.08736350338553e-07  89.9972239805750  0.00000000000000  0.00000000000000 
 14.2889395850914  2.12128043332716e-07  89.9971788701972  0.00000000000000  0.00000000000000 
 14.5211161758574  2.15574846806160e-07  89.9971330343345  0.00000000000000  0.00000000000000 
 14.7570653327384  2.19077656028888e-07  89.9970864369030  0.00000000000000  0.00000000000000 
 14.9968483550028  2.22637381765443e-07  89.9970391028672  0.00000000000000  0.00000000000000 
 15.2405275379515  2.26254948144693e-07  89.9969909948600  0.00000000000000  0.00000000000000 
 15.4881661891029  2.29931295414555e-07  89.9969420802129  0.00000000000000  0.00000000000000 
 15.7398286446398  2.33667378235016e-07  89.9968924064139  0.00000000000000  0.00000000000000 
 15.9955802861238  2.37464167704318e-07  89.9968419401985  0.00000000000000  0.00000000000000 
 16.2554875574814  2.41322649908729e-07  89.9967906097465  0.00000000000000  0.00000000000000 
 16.5196179822662  2.45243827796001e-07  89.9967384584818  0.00000000000000  0.00000000000000 
 16.7880401812012  2.49228719399064e-07  89.9966854542154  0.00000000000000  0.00000000000000 
 17.0608238900063  2.53278360333997e-07  89.9966315977817  0.00000000000000  0.00000000000000 
 17.3380399775159  2.57393802551044e-07  89.9965768672267  0.00000000000000  0.00000000000000 
 17.6197604640902  2.61576115340743e-07  89.9965212523701  0.00000000000000  0.00000000000000 
 17.9060585403263  2.65826385042503e-07  89.9964647313472  0.00000000000000  0.00000000000000 
 18.1970085860726  2.70145716585031e-07  89.9964072747699  0.00000000000000  0.00000000000000 
 18.4926861897529  2.74535231474047e-07  89.9963488882271  0.00000000000000  0.00000000000000 
 18.7931681680042  2.78996070040489e-07  89.9962895847099  0.00000000000000  0.00000000000000 
 19.0985325856333  2.83529391260132e-07  89.9962292906372  0.00000000000000  0.00000000000000 
 19.4088587758981  2.88136373280887e-07  89.9961680345952  0.00000000000000  0.00000000000000 
 19.7242273611182  2.92818212791425e-07  89.9961057472870  0.00000000000000  0.00000000000000 
 20.0447202736206  2.97576125839894e-07  89.9960424776070  0.00000000000000  0.00000000000000 
 20.3704207770255  3.02411348985850e-07  89.9959781735903  0.00000000000000  0.00000000000000 
 20.7014134878780  3.07325138085904e-07  89.9959128249361  0.00000000000000  0.00000000000000 
 21.0377843976317  3.12318769854991e-07  89.9958463994246  0.00000000000000  0.00000000000000 
 21.3796208949885  3.17393541831649e-07  89.9957789322837  0.00000000000000  0.00000000000000 
 21.7270117886029  3.22550772045017e-07  89.9957103412901  0.00000000000000  0.00000000000000 
 22.0800473301537  3.27791800576003e-07  89.9956406465876  0.00000000000000  0.00000000000000 
 22.4388192377916  3.33117988509578e-07  89.9955698055225  0.00000000000000  0.00000000000000 
 22.8034207199674  3.38530720106608e-07  89.9954978163583  0.00000000000000  0.00000000000000 
 23.1739464996472  3.44031402172434e-07  89.9954246614367  0.00000000000000  0.00000000000000 
 23.5504928389217  3.49621462710723e-07  89.9953503284066  0.00000000000000  0.00000000000000 
 23.9331575640147  3.55302354420685e-07  89.9952747776491  0.00000000000000  0.00000000000000 
 24.3220400906981  3.61075553323145e-07  89.9951979934034  0.00000000000000  0.00000000000000 
 24.7172414501204  3.66942559176893e-07  89.9951199573886  0.00000000000000  0.00000000000000 
 25.1188643150540  3.72904895964394e-07  89.9950406708481  0.00000000000000  0.00000000000000 
 25.5270130265698  3.78964113015929e-07  89.9949600787701  0.00000000000000  0.00000000000000 
 25.9417936211445  3.85121784496047e-07  89.9948782015562  0.00000000000000  0.00000000000000 
 26.3633138582093  3.91379510048972e-07  89.9947949734168  0.00000000000000  0.00000000000000 
 26.7916832481449  3.97738915499343e-07  89.9947103969843  0.00000000000000  0.00000000000000 
 27.2270130807327  4.04201652984111e-07  89.9946244458802  0.00000000000000  0.00000000000000 
 27.6694164540677  4.10769401459052e-07  89.9945371055886  0.00000000000000  0.00000000000000 
 28.1190083039410  4.17443867233086e-07  89.9944483401634  0.00000000000000  0.00000000000000 
